Time(ms),RPM,TPS(%),Coolant(C),MAP(mBar),VBAT(V),Gear,Lambda1,CRC32
20,1870,3.77,45.0,1013.0,14.20,0,0.994,12
40,1800,6.60,45.0,1013.0,14.17,0,0.990,14
60,1800,9.43,45.1,1013.0,14.19,0,0.986,10
80,1800,10.68,45.1,1013.0,14.17,0,0.984,57
100,1835,13.32,45.1,1013.0,14.16,0,0.980,15
120,1943,17.92,45.1,1013.0,14.14,0,0.973,13
140,2148,21.51,45.1,1013.0,14.17,0,0.968,8
160,2430,25.79,45.2,1013.0,14.18,0,0.961,11
180,2722,27.64,45.2,1013.0,14.13,1,0.959,10
200,2826,29.06,45.2,1013.0,14.11,1,0.956,13
220,3009,33.93,45.2,1013.0,14.15,1,0.949,6
240,3247,36.25,45.3,1013.0,14.11,1,0.946,10
260,3474,39.90,45.3,1013.0,14.13,1,0.940,11
280,3687,40.78,45.3,1013.0,14.16,1,0.939,8
300,3910,46.36,45.4,1013.0,14.19,1,0.930,13
320,4133,46.96,45.4,1013.0,14.12,1,0.930,0
340,4468,53.15,45.5,1013.0,14.14,1,0.920,4
360,4778,55.47,45.5,1013.0,14.11,1,0.917,4
380,5117,61.45,45.6,1013.0,14.11,1,0.908,12
400,5458,64.34,45.6,1013.0,14.17,1,0.903,3
420,5815,64.82,45.7,1013.0,14.18,1,0.903,7
440,6155,68.29,45.7,1013.0,14.20,1,0.898,10
460,6500,77.57,45.8,1013.0,14.17,1,0.884,13
480,6890,80.03,45.9,1013.0,14.12,1,0.880,14
500,7306,89.35,46.0,1013.0,14.16,1,0.866,8
520,7741,95.33,46.0,1013.0,14.19,1,0.857,11
540,8198,100.00,46.1,1013.0,14.18,1,0.850,58
560,8616,100.00,46.2,1013.0,14.13,1,0.850,49
580,9018,100.00,46.3,1013.0,14.19,1,0.850,61
600,9421,100.00,46.4,1013.0,14.18,1,0.850,62
620,9807,100.00,46.5,1013.0,14.20,1,0.850,62
640,10152,100.00,46.6,1013.0,14.19,1,0.850,0
660,10527,100.00,46.7,1013.0,14.11,1,0.850,13
680,10778,100.00,46.8,1013.0,14.17,1,0.850,2
700,11018,100.00,46.9,1013.0,14.14,1,0.850,9
720,11276,100.00,47.0,1013.0,14.14,1,0.850,9
740,11476,100.00,47.1,1013.0,14.17,1,0.850,11
760,11713,100.00,47.2,1013.0,14.18,1,0.850,5
780,11959,100.00,47.4,1013.0,14.16,1,0.850,3
800,12162,100.00,47.5,1013.0,14.18,1,0.850,8
820,12339,100.00,47.6,1013.0,14.18,1,0.850,5
840,12472,100.00,47.7,1013.0,14.15,1,0.850,7
860,12646,100.00,47.9,1013.0,14.14,1,0.850,15
880,12800,100.00,48.0,1013.0,14.11,1,0.850,14
900,12909,100.00,48.1,1013.0,14.16,1,0.850,9
920,13031,100.00,48.3,1013.0,14.14,1,0.850,8
940,12982,80.00,48.4,1013.0,14.11,2,0.880,59
960,12989,86.00,48.5,1013.0,14.19,2,0.871,51
980,12966,87.78,48.6,1013.0,14.11,2,0.868,49
1000,13066,100.00,48.8,1013.0,14.19,2,0.850,53
1020,13059,80.00,48.9,1013.0,14.19,3,0.880,15
1040,13007,64.00,49.0,1013.0,14.15,4,0.904,6
1060,12895,51.20,49.2,1013.0,14.12,5,0.923,3
1080,12877,79.44,49.3,1013.0,14.10,5,0.881,3
1100,12991,96.38,49.4,1013.0,14.12,5,0.855,5
1120,13021,100.00,49.6,1013.0,14.20,5,0.850,55
1140,13018,80.00,49.7,1013.0,14.16,5,0.880,11
1160,13011,64.00,49.8,1013.0,14.16,5,0.904,8
1180,12881,51.20,49.9,1013.0,14.17,5,0.923,7
1200,12808,58.55,50.1,1013.0,14.17,5,0.912,4
1220,12841,77.56,50.2,1013.0,14.18,5,0.884,7
1240,12922,99.93,50.3,1013.0,14.10,5,0.850,12
1260,12970,100.00,50.5,1013.0,14.11,5,0.850,53
1280,13026,100.00,50.6,1013.0,14.17,5,0.850,53
1300,13031,80.00,50.7,1013.0,14.19,5,0.880,1
1320,12977,64.00,50.8,1013.0,14.17,5,0.904,15
1340,12998,75.01,51.0,1013.0,14.20,5,0.887,14
1360,13050,100.00,51.1,1013.0,14.13,5,0.850,57
1380,13068,80.00,51.2,1013.0,14.19,5,0.880,1
1400,13031,64.00,51.4,1013.0,14.16,5,0.904,12
1420,12978,51.20,51.5,1013.0,14.14,5,0.923,9
1440,12890,66.34,51.6,1013.0,14.11,5,0.900,14
1460,12893,88.31,51.8,1013.0,14.12,5,0.868,8
1480,12995,100.00,51.9,1013.0,14.16,5,0.850,60
1500,13076,100.00,52.0,1013.0,14.14,5,0.850,56
1520,-1,-1.00,-1.0,-1.0,-1.00,-1,-1.000,40
1540,1800,-1.00,-1.0,-1.0,14.14,-1,1.002,8
1560,1800,-1.00,-1.0,-1.0,14.11,-1,1.002,15
1580,1800,-1.00,-0.9,-1.0,14.17,-1,1.002,15
1600,1800,-1.00,-0.9,-1.0,14.18,-1,1.002,11
1620,1800,-1.00,-0.9,-1.0,14.12,-1,1.002,3
1640,1800,-1.00,-0.9,-1.0,14.11,-1,1.002,6
1660,1800,-1.00,-0.9,-1.0,14.13,-1,1.002,6
1680,1800,-1.00,-0.9,-1.0,14.16,-1,1.002,13
1700,1800,-1.00,-0.8,-1.0,14.18,-1,1.002,11
1720,1800,-1.00,-0.8,-1.0,14.13,-1,1.002,2
1740,1800,-1.00,-0.8,-1.0,14.18,-1,1.002,15
1760,1800,-1.00,-0.8,-1.0,14.20,-1,1.002,6
1780,1800,-1.00,-0.8,-1.0,14.14,-1,1.002,15
1800,1800,-1.00,-0.7,-1.0,14.18,-1,1.002,11
1820,1800,-1.00,-0.7,-1.0,14.17,-1,1.002,6
1840,1800,-1.00,-0.7,-1.0,14.13,-1,1.002,4
1860,1800,-1.00,-0.7,-1.0,14.15,-1,1.002,0
1880,1800,-1.00,-0.7,-1.0,14.15,-1,1.002,14
1900,1800,-1.00,-0.7,-1.0,14.15,-1,1.002,7
1920,1800,-1.00,-0.6,-1.0,14.11,-1,1.002,0
1940,1800,-1.00,-0.6,-1.0,14.17,-1,1.002,0
1960,1800,-1.00,-0.6,-1.0,14.11,-1,1.002,4
1980,1800,-1.00,-0.6,-1.0,14.10,-1,1.002,11
2000,1800,-1.00,-0.6,-1.0,14.13,-1,1.002,10
2020,1800,-1.00,-0.5,-1.0,14.13,-1,1.002,11
2040,1800,-1.00,-0.5,-1.0,14.18,-1,1.002,6
2060,1800,-1.00,-0.5,-1.0,14.20,-1,1.002,15
2080,1800,-1.00,-0.5,-1.0,14.17,-1,1.002,5
2100,1800,-1.00,-0.5,-1.0,14.13,-1,1.002,8
2120,1800,-1.00,-0.5,-1.0,14.10,-1,1.002,9
2140,1800,-1.00,-0.4,-1.0,14.14,-1,1.002,10
2160,1800,-1.00,-0.4,-1.0,14.11,-1,1.002,13
2180,1800,-1.00,-0.4,-1.0,14.13,-1,1.002,1
2200,1800,-1.00,-0.4,-1.0,14.14,-1,1.002,13
2220,1800,-1.00,-0.4,-1.0,14.19,-1,1.002,2
2240,1800,-1.00,-0.4,-1.0,14.18,-1,1.002,5
2260,1800,-1.00,-0.3,-1.0,14.12,-1,1.002,10
2280,1800,-1.00,-0.3,-1.0,14.18,-1,1.002,14
2300,1800,-1.00,-0.3,-1.0,14.19,-1,1.002,6
2320,1800,-1.00,-0.3,-1.0,14.14,-1,1.002,9
2340,1800,-1.00,-0.3,-1.0,14.12,-1,1.002,9
2360,1800,-1.00,-0.2,-1.0,14.13,-1,1.002,11
2380,1800,-1.00,-0.2,-1.0,14.17,-1,1.002,1
2400,1800,-1.00,-0.2,-1.0,14.10,-1,1.002,9
2420,1800,-1.00,-0.2,-1.0,14.17,-1,1.002,12
2440,1800,-1.00,-0.2,-1.0,14.15,-1,1.002,8
2460,1800,-1.00,-0.2,-1.0,14.19,-1,1.002,6
2480,1800,-1.00,-0.1,-1.0,14.17,-1,1.002,5
2500,1800,-1.00,-0.1,-1.0,14.10,-1,1.002,11
2520,1800,-1.00,-0.1,-1.0,14.16,-1,1.002,15
2540,-1,-1.00,-1.0,-1.0,-1.00,-1,-1.000,45
2560,1800,-1.00,-1.0,-1.0,14.13,-1,1.002,14
2580,1800,-1.00,-1.0,-1.0,14.17,-1,1.002,4
2600,1800,-1.00,-0.9,-1.0,14.19,-1,1.002,9
2620,1800,-1.00,-0.9,-1.0,14.18,-1,1.002,10
2640,1800,-1.00,-0.9,-1.0,14.13,-1,1.002,7
2660,1800,-1.00,-0.9,-1.0,14.11,-1,1.002,7
2680,1800,-1.00,-0.9,-1.0,14.14,-1,1.002,12
2700,1800,-1.00,-0.9,-1.0,14.13,-1,1.002,2
2720,1800,-1.00,-0.8,-1.0,14.17,-1,1.002,5
2740,1800,-1.00,-0.8,-1.0,14.16,-1,1.002,2
2760,1800,-1.00,-0.8,-1.0,14.13,-1,1.002,5
2780,1800,-1.00,-0.8,-1.0,14.10,-1,1.002,8
2800,1800,-1.00,-0.8,-1.0,14.16,-1,1.002,9
2820,1800,-1.00,-0.7,-1.0,14.19,-1,1.002,11
2840,1800,-1.00,-0.7,-1.0,14.12,-1,1.002,6
2860,1800,-1.00,-0.7,-1.0,14.13,-1,1.002,5
2880,1800,-1.00,-0.7,-1.0,14.16,-1,1.002,14
2900,1800,-1.00,-0.7,-1.0,14.19,-1,1.002,8
2920,1800,-1.00,-0.7,-1.0,14.14,-1,1.002,7
2940,1800,-1.00,-0.6,-1.0,14.14,-1,1.002,0
2960,1800,-1.00,-0.6,-1.0,14.19,-1,1.002,15
2980,1800,-1.00,-0.6,-1.0,14.12,-1,1.002,10
3000,-1,-1.00,-1.0,-1.0,-1.00,-1,-1.000,45
3020,1800,-1.00,-1.0,-1.0,14.13,-1,1.002,14
3040,1800,-1.00,-1.0,-1.0,14.17,-1,1.002,12
3060,1800,-1.00,-0.9,-1.0,14.11,-1,1.002,0
3080,1800,-1.00,-0.9,-1.0,14.17,-1,1.002,8
3100,1800,-1.00,-0.9,-1.0,14.19,-1,1.002,15
3120,1800,-1.00,-0.9,-1.0,14.18,-1,1.002,12
3140,1800,-1.00,-0.9,-1.0,14.12,-1,1.002,0
3160,1800,-1.00,-0.9,-1.0,14.20,-1,1.002,3
3180,1800,-1.00,-0.8,-1.0,14.16,-1,1.002,9
3200,1800,-1.00,-0.8,-1.0,14.12,-1,1.002,6
3220,1800,-1.00,-0.8,-1.0,14.19,-1,1.002,15
3240,1800,-1.00,-0.8,-1.0,14.11,-1,1.002,1
3260,1800,-1.00,-0.8,-1.0,14.17,-1,1.002,5
3280,1800,-1.00,-0.7,-1.0,14.19,-1,1.002,10
3300,1800,-1.00,-0.7,-1.0,14.15,-1,1.002,15
3320,1800,-1.00,-0.7,-1.0,14.14,-1,1.002,12
3340,1800,-1.00,-0.7,-1.0,14.11,-1,1.002,15
3360,1800,-1.00,-0.7,-1.0,14.14,-1,1.002,8
3380,1800,-1.00,-0.7,-1.0,14.18,-1,1.002,10
3400,1800,-1.00,-0.6,-1.0,14.11,-1,1.002,13
3420,1800,-1.00,-0.6,-1.0,14.14,-1,1.002,10
3440,1800,-1.00,-0.6,-1.0,14.12,-1,1.002,10
3460,1800,-1.00,-0.6,-1.0,14.17,-1,1.002,13
3480,1800,-1.00,-0.6,-1.0,14.13,-1,1.002,7
3500,1800,-1.00,-0.5,-1.0,14.14,-1,1.002,10
3520,1800,-1.00,-0.5,-1.0,14.11,-1,1.002,13
3540,1800,-1.00,-0.5,-1.0,14.18,-1,1.002,2
3560,1800,-1.00,-0.5,-1.0,14.17,-1,1.002,15
3580,1800,-1.00,-0.5,-1.0,14.13,-1,1.002,5
3600,1800,-1.00,-0.5,-1.0,14.18,-1,1.002,5
3620,1800,-1.00,-0.4,-1.0,14.17,-1,1.002,9
3640,1800,-1.00,-0.4,-1.0,14.17,-1,1.002,15
3660,1800,-1.00,-0.4,-1.0,14.20,-1,1.002,9
3680,1800,-1.00,-0.4,-1.0,14.15,-1,1.002,1
3700,1800,-1.00,-0.4,-1.0,14.11,-1,1.002,12
3720,1800,-1.00,-0.4,-1.0,14.16,-1,1.002,9
3740,1800,-1.00,-0.3,-1.0,14.16,-1,1.002,8
3760,1800,-1.00,-0.3,-1.0,14.13,-1,1.002,15
3780,1800,-1.00,-0.3,-1.0,14.20,-1,1.002,1
3800,1800,-1.00,-0.3,-1.0,14.12,-1,1.002,7
3820,1800,-1.00,-0.3,-1.0,14.17,-1,1.002,0
3840,1800,-1.00,-0.2,-1.0,14.11,-1,1.002,1
3860,1800,-1.00,-0.2,-1.0,14.13,-1,1.002,1
3880,1800,-1.00,-0.2,-1.0,14.14,-1,1.002,8
3900,1800,-1.00,-0.2,-1.0,14.14,-1,1.002,1
3920,1800,-1.00,-0.2,-1.0,14.17,-1,1.002,0
3940,1800,-1.00,-0.2,-1.0,14.15,-1,1.002,4
3960,1800,-1.00,-0.1,-1.0,14.11,-1,1.002,1
3980,1800,-1.00,-0.1,-1.0,14.11,-1,1.002,15
4000,1800,-1.00,-0.1,-1.0,14.13,-1,1.002,11
4020,1800,-1.00,-0.1,-1.0,14.15,-1,1.002,15
4040,1800,-1.00,-0.1,-1.0,14.14,-1,1.002,8
4060,1800,-1.00,-0.0,-1.0,14.19,-1,1.002,6
4080,1800,-1.00,-0.0,-1.0,14.14,-1,1.002,5
4100,1800,-1.00,-0.0,-1.0,14.15,-1,1.002,13
4120,1800,-1.00,0.0,-1.0,14.18,-1,1.002,47
4140,1800,-1.00,0.0,-1.0,14.16,-1,1.002,39
4160,1800,-1.00,0.0,-1.0,14.11,-1,1.002,34
4180,1800,-1.00,0.1,-1.0,14.15,-1,1.002,41
4200,1800,-1.00,0.1,-1.0,14.20,-1,1.002,36
4220,1800,-1.00,0.1,-1.0,14.10,-1,1.002,37
4240,1800,-1.00,0.1,-1.0,14.16,-1,1.002,37
4260,1800,-1.00,0.1,-1.0,14.18,-1,1.002,41
4280,1800,-1.00,0.2,-1.0,14.18,-1,1.002,36
4300,1800,-1.00,0.2,-1.0,14.17,-1,1.002,34
4320,1800,-1.00,0.2,-1.0,14.14,-1,1.002,35
4340,1800,-1.00,0.2,-1.0,14.13,-1,1.002,34
4360,1800,-1.00,0.2,-1.0,14.16,-1,1.002,37
4380,1800,-1.00,0.2,-1.0,14.11,-1,1.002,44
4400,1800,-1.00,0.3,-1.0,14.18,-1,1.002,43
4420,1800,-1.00,0.3,-1.0,14.11,-1,1.002,32
4440,1800,-1.00,0.3,-1.0,14.19,-1,1.002,46
4460,1800,-1.00,0.3,-1.0,14.16,-1,1.002,35
4480,1800,-1.00,0.3,-1.0,14.11,-1,1.002,42
4500,1800,-1.00,0.4,-1.0,14.15,-1,1.002,32
4520,1800,-1.00,0.4,-1.0,14.13,-1,1.002,36
4540,1800,-1.00,0.4,-1.0,14.19,-1,1.002,40
4560,1800,-1.00,0.4,-1.0,14.12,-1,1.002,33
4580,1800,-1.00,0.4,-1.0,14.20,-1,1.002,46
4600,1800,-1.00,0.4,-1.0,14.17,-1,1.002,33
4620,1800,-1.00,0.5,-1.0,14.19,-1,1.002,44
4640,1800,-1.00,0.5,-1.0,14.15,-1,1.002,38
4660,1800,-1.00,0.5,-1.0,14.14,-1,1.002,37
4680,1800,-1.00,0.5,-1.0,14.12,-1,1.002,45
4700,1800,-1.00,0.5,-1.0,14.13,-1,1.002,37
4720,1800,-1.00,0.5,-1.0,14.19,-1,1.002,45
4740,1800,-1.00,0.6,-1.0,14.11,-1,1.002,32
4760,1800,-1.00,0.6,-1.0,14.12,-1,1.002,33
4780,1800,-1.00,0.6,-1.0,14.13,-1,1.002,46
4800,1800,-1.00,0.6,-1.0,14.17,-1,1.002,45
4820,1800,-1.00,0.6,-1.0,14.15,-1,1.002,45
4840,1800,-1.00,0.7,-1.0,14.16,-1,1.002,41
4860,1800,-1.00,0.7,-1.0,14.14,-1,1.002,41
4880,1800,-1.00,0.7,-1.0,14.19,-1,1.002,42
4900,1800,-1.00,0.7,-1.0,14.12,-1,1.002,40
4920,1800,-1.00,0.7,-1.0,14.11,-1,1.002,41
4940,1800,-1.00,0.7,-1.0,14.10,-1,1.002,46
4960,1800,-1.00,0.8,-1.0,14.12,-1,1.002,33
4980,1800,-1.00,0.8,-1.0,14.16,-1,1.002,43
5000,1800,-1.00,0.8,-1.0,14.13,-1,1.002,46
5020,1800,-1.00,0.8,-1.0,14.20,-1,1.002,44
5040,1800,-1.00,0.8,-1.0,14.12,-1,1.002,43
5060,1800,-1.00,0.9,-1.0,14.17,-1,1.002,45
5080,1800,-1.00,0.9,-1.0,14.18,-1,1.002,44
5100,1800,-1.00,0.9,-1.0,14.17,-1,1.002,42
5120,1800,-1.00,0.9,-1.0,14.17,-1,1.002,40
5140,1800,-1.00,0.9,-1.0,14.14,-1,1.002,45
5160,1800,-1.00,0.9,-1.0,14.18,-1,1.002,35
5180,1800,-1.00,1.0,-1.0,14.16,-1,1.002,43
5200,1800,-1.00,1.0,-1.0,14.17,-1,1.002,33
5220,1800,-1.00,1.0,-1.0,14.16,-1,1.002,34
5240,1800,-1.00,1.0,-1.0,14.18,-1,1.002,42
5260,1800,-1.00,1.0,-1.0,14.20,-1,1.002,35
5280,1800,-1.00,1.1,-1.0,14.10,-1,1.002,47
5300,1800,-1.00,1.1,-1.0,14.20,-1,1.002,37
5320,1800,-1.00,1.1,-1.0,14.12,-1,1.002,38
5340,1800,-1.00,1.1,-1.0,14.17,-1,1.002,37
5360,1800,-1.00,1.1,-1.0,14.16,-1,1.002,38
5380,1800,-1.00,1.1,-1.0,14.10,-1,1.002,46
5400,1800,-1.00,1.2,-1.0,14.12,-1,1.002,32
5420,1800,-1.00,1.2,-1.0,14.18,-1,1.002,40
5440,1800,-1.00,1.2,-1.0,14.13,-1,1.002,37
5460,1800,-1.00,1.2,-1.0,14.18,-1,1.002,44
5480,1800,-1.00,1.2,-1.0,14.10,-1,1.002,42
5500,1800,-1.00,1.3,-1.0,14.19,-1,1.002,43
5520,1800,-1.00,1.3,-1.0,14.11,-1,1.002,33
5540,1800,-1.00,1.3,-1.0,14.13,-1,1.002,37
5560,1800,-1.00,1.3,-1.0,14.19,-1,1.002,45
5580,1800,-1.00,1.3,-1.0,14.17,-1,1.002,45
5600,1800,-1.00,1.3,-1.0,14.11,-1,1.002,32
5620,1800,-1.00,1.4,-1.0,14.11,-1,1.002,37
5640,1800,-1.00,1.4,-1.0,14.17,-1,1.002,37
5660,1800,-1.00,1.4,-1.0,14.15,-1,1.002,37
5680,1800,-1.00,1.4,-1.0,14.18,-1,1.002,38
5700,1800,-1.00,1.4,-1.0,14.12,-1,1.002,37
5720,1800,-1.00,1.4,-1.0,14.18,-1,1.002,45
5740,1800,-1.00,1.5,-1.0,14.14,-1,1.002,38
5760,1800,-1.00,1.5,-1.0,14.17,-1,1.002,39
5780,1800,-1.00,1.5,-1.0,14.12,-1,1.002,44
5800,1800,-1.00,1.5,-1.0,14.14,-1,1.002,45
5820,1800,-1.00,1.5,-1.0,14.19,-1,1.002,34
5840,1800,-1.00,1.6,-1.0,14.14,-1,1.002,42
5860,1800,-1.00,1.6,-1.0,14.17,-1,1.002,43
5880,1800,-1.00,1.6,-1.0,14.12,-1,1.002,32
5900,1800,-1.00,1.6,-1.0,14.18,-1,1.002,35
5920,1800,-1.00,1.6,-1.0,14.13,-1,1.002,42
5940,1800,-1.00,1.6,-1.0,14.11,-1,1.002,46
5960,1800,-1.00,1.7,-1.0,14.17,-1,1.002,43
5980,1800,-1.00,1.7,-1.0,14.19,-1,1.002,43
6000,1800,-1.00,1.7,-1.0,14.13,-1,1.002,35
6020,1800,-1.00,1.7,-1.0,14.19,-1,1.002,43
6040,1800,-1.00,1.7,-1.0,14.13,-1,1.002,39
6060,1800,-1.00,1.8,-1.0,14.17,-1,1.002,46
6080,1800,-1.00,1.8,-1.0,14.17,-1,1.002,32
6100,1800,-1.00,1.8,-1.0,14.13,-1,1.002,45
6120,1800,-1.00,1.8,-1.0,14.13,-1,1.002,47
6140,1800,-1.00,1.8,-1.0,14.16,-1,1.002,44
6160,1800,-1.00,1.8,-1.0,14.19,-1,1.002,33
6180,1800,-1.00,1.9,-1.0,14.13,-1,1.002,36
6200,1800,-1.00,1.9,-1.0,14.14,-1,1.002,40
6220,1800,-1.00,1.9,-1.0,14.20,-1,1.002,45
6240,1800,-1.00,1.9,-1.0,14.17,-1,1.002,47
6260,1800,-1.00,1.9,-1.0,14.10,-1,1.002,42
6280,1800,-1.00,2.0,-1.0,14.16,-1,1.002,40
6300,1800,-1.00,2.0,-1.0,14.11,-1,1.002,38
6320,1800,-1.00,2.0,-1.0,14.11,-1,1.002,36
6340,1800,-1.00,2.0,-1.0,14.13,-1,1.002,32
6360,1800,-1.00,2.0,-1.0,14.10,-1,1.002,33
6380,1800,-1.00,2.0,-1.0,14.18,-1,1.002,39
6400,1800,-1.00,2.1,-1.0,14.15,-1,1.002,36
6420,1800,-1.00,2.1,-1.0,14.18,-1,1.002,43
6440,1800,-1.00,2.1,-1.0,14.18,-1,1.002,45
6460,1800,-1.00,2.1,-1.0,14.16,-1,1.002,33
6480,1800,-1.00,2.1,-1.0,14.12,-1,1.002,43
6500,1800,-1.00,2.2,-1.0,14.16,-1,1.002,37
6520,1800,-1.00,2.2,-1.0,14.17,-1,1.002,38
6540,1800,-1.00,2.2,-1.0,14.16,-1,1.002,33
6560,1800,-1.00,2.2,-1.0,14.14,-1,1.002,33
6580,1800,-1.00,2.2,-1.0,14.17,-1,1.002,44
6600,1800,-1.00,2.2,-1.0,14.14,-1,1.002,36
6620,1800,-1.00,2.3,-1.0,14.19,-1,1.002,42
6640,1800,-1.00,2.3,-1.0,14.17,-1,1.002,34
6660,1800,-1.00,2.3,-1.0,14.10,-1,1.002,39
6680,1800,-1.00,2.3,-1.0,14.18,-1,1.002,33
6700,1800,-1.00,2.3,-1.0,14.14,-1,1.002,36
6720,1800,-1.00,2.3,-1.0,14.15,-1,1.002,39
6740,1800,-1.00,2.4,-1.0,14.19,-1,1.002,42
6760,1800,-1.00,2.4,-1.0,14.17,-1,1.002,38
6780,1800,-1.00,2.4,-1.0,14.10,-1,1.002,47
6800,1800,-1.00,2.4,-1.0,14.13,-1,1.002,43
6820,1800,-1.00,2.4,-1.0,14.14,-1,1.002,46
6840,1800,-1.00,2.5,-1.0,14.18,-1,1.002,37
6860,1800,-1.00,2.5,-1.0,14.18,-1,1.002,39
6880,1800,-1.00,2.5,-1.0,14.12,-1,1.002,35
6900,1800,-1.00,2.5,-1.0,14.13,-1,1.002,43
6920,1800,-1.00,2.5,-1.0,14.16,-1,1.002,44
6940,1800,-1.00,2.5,-1.0,14.18,-1,1.002,36
6960,1800,-1.00,2.6,-1.0,14.16,-1,1.002,43
6980,1800,-1.00,2.6,-1.0,14.15,-1,1.002,38
7000,1800,-1.00,2.6,-1.0,14.13,-1,1.002,32
7020,1800,-1.00,2.6,-1.0,14.18,-1,1.002,41
7040,1800,-1.00,2.6,-1.0,14.19,-1,1.002,46
7060,1800,-1.00,2.7,-1.0,14.15,-1,1.002,33
7080,1800,-1.00,2.7,-1.0,14.15,-1,1.002,47
7100,1800,-1.00,2.7,-1.0,14.18,-1,1.002,43
7120,1800,-1.00,2.7,-1.0,14.20,-1,1.002,34
7140,1800,-1.00,2.7,-1.0,14.19,-1,1.002,46
7160,-1,-1.00,-1.0,-1.0,-1.00,-1,-1.000,46
7180,1800,-1.00,-1.0,-1.0,14.17,-1,1.002,5
7200,1800,-1.00,-1.0,-1.0,14.14,-1,1.002,13
7220,1800,-1.00,-0.9,-1.0,14.12,-1,1.002,1
7240,1800,-1.00,-0.9,-1.0,14.19,-1,1.002,12
7260,1800,-1.00,-0.9,-1.0,14.19,-1,1.002,14
7280,1800,-1.00,-0.9,-1.0,14.15,-1,1.002,12
7300,1800,-1.00,-0.9,-1.0,14.14,-1,1.002,4
7320,1800,-1.00,-0.9,-1.0,14.16,-1,1.002,4
7340,1800,-1.00,-0.8,-1.0,14.17,-1,1.002,2
7360,1800,-1.00,-0.8,-1.0,14.19,-1,1.002,14
7380,1800,-1.00,-0.8,-1.0,14.11,-1,1.002,8
7400,1800,-1.00,-0.8,-1.0,14.13,-1,1.002,5
7420,1800,-1.00,-0.8,-1.0,14.16,-1,1.002,2
7440,1800,-1.00,-0.7,-1.0,14.12,-1,1.002,15
7460,1800,-1.00,-0.7,-1.0,14.15,-1,1.002,10
7480,1800,-1.00,-0.7,-1.0,14.12,-1,1.002,3
7500,1800,-1.00,-0.7,-1.0,14.17,-1,1.002,15
7520,1800,-1.00,-0.7,-1.0,14.15,-1,1.002,15
7540,1800,-1.00,-0.7,-1.0,14.10,-1,1.002,12
7560,1800,-1.00,-0.6,-1.0,14.12,-1,1.002,13
7580,1800,-1.00,-0.6,-1.0,14.18,-1,1.002,9
7600,1800,-1.00,-0.6,-1.0,14.13,-1,1.002,9
7620,1800,-1.00,-0.6,-1.0,14.14,-1,1.002,12
7640,1800,-1.00,-0.6,-1.0,14.17,-1,1.002,9
7660,1800,-1.00,-0.5,-1.0,14.12,-1,1.002,13
7680,1800,-1.00,-0.5,-1.0,14.15,-1,1.002,4
7700,1800,-1.00,-0.5,-1.0,14.12,-1,1.002,10
7720,1800,-1.00,-0.5,-1.0,14.12,-1,1.002,8
7740,1800,-1.00,-0.5,-1.0,14.16,-1,1.002,10
7760,1800,-1.00,-0.5,-1.0,14.16,-1,1.002,8
7780,1800,-1.00,-0.4,-1.0,14.17,-1,1.002,6
7800,1800,-1.00,-0.4,-1.0,14.17,-1,1.002,1
7820,1800,-1.00,-0.4,-1.0,14.12,-1,1.002,6
7840,1800,-1.00,-0.4,-1.0,14.12,-1,1.002,0
7860,1800,-1.00,-0.4,-1.0,14.18,-1,1.002,8
7880,1800,-1.00,-0.4,-1.0,14.19,-1,1.002,7
7900,1800,-1.00,-0.3,-1.0,14.14,-1,1.002,4
7920,1800,-1.00,-0.3,-1.0,14.17,-1,1.002,5
7940,1800,-1.00,-0.3,-1.0,14.17,-1,1.002,3
7960,1800,-1.00,-0.3,-1.0,14.16,-1,1.002,0
7980,1800,-1.00,-0.3,-1.0,14.10,-1,1.002,8
8000,1800,-1.00,-0.2,-1.0,14.11,-1,1.002,6
8020,1800,-1.00,-0.2,-1.0,14.11,-1,1.002,4
8040,1800,-1.00,-0.2,-1.0,14.16,-1,1.002,5
8060,1800,-1.00,-0.2,-1.0,14.20,-1,1.002,2
8080,1800,-1.00,-0.2,-1.0,14.17,-1,1.002,8
8100,1800,-1.00,-0.2,-1.0,14.19,-1,1.002,15
8120,1800,-1.00,-0.1,-1.0,14.19,-1,1.002,14
8140,1800,-1.00,-0.1,-1.0,14.16,-1,1.002,7
8160,1800,-1.00,-0.1,-1.0,14.16,-1,1.002,5
8180,1800,-1.00,-0.1,-1.0,14.17,-1,1.002,10
8200,1800,-1.00,-0.1,-1.0,14.20,-1,1.002,5
8220,1800,-1.00,-0.0,-1.0,14.11,-1,1.002,4
8240,1800,-1.00,-0.0,-1.0,14.10,-1,1.002,3
8260,1800,-1.00,-0.0,-1.0,14.16,-1,1.002,7
8280,1800,-1.00,0.0,-1.0,14.16,-1,1.002,36
8300,1800,-1.00,0.0,-1.0,14.11,-1,1.002,42
8320,1800,-1.00,0.0,-1.0,14.10,-1,1.002,41
8340,1800,-1.00,0.1,-1.0,14.14,-1,1.002,42
8360,1800,-1.00,0.1,-1.0,14.19,-1,1.002,37
8380,1800,-1.00,0.1,-1.0,14.18,-1,1.002,42
8400,1800,-1.00,0.1,-1.0,14.12,-1,1.002,47
8420,1800,-1.00,0.1,-1.0,14.20,-1,1.002,44
8440,1800,-1.00,0.2,-1.0,14.14,-1,1.002,46
8460,1800,-1.00,0.2,-1.0,14.18,-1,1.002,32
8480,1800,-1.00,0.2,-1.0,14.12,-1,1.002,36
8500,1800,-1.00,0.2,-1.0,14.12,-1,1.002,45
8520,1800,-1.00,0.2,-1.0,14.19,-1,1.002,36
8540,1800,-1.00,0.2,-1.0,14.13,-1,1.002,40
8560,1800,-1.00,0.3,-1.0,14.17,-1,1.002,47
8580,1800,-1.00,0.3,-1.0,14.18,-1,1.002,46
8600,1800,-1.00,0.3,-1.0,14.19,-1,1.002,36
8620,1800,-1.00,0.3,-1.0,14.11,-1,1.002,46
8640,1800,-1.00,0.3,-1.0,14.11,-1,1.002,40
8660,1800,-1.00,0.4,-1.0,14.12,-1,1.002,46
8680,1800,-1.00,0.4,-1.0,14.16,-1,1.002,36
8700,1800,-1.00,0.4,-1.0,14.17,-1,1.002,44
8720,1800,-1.00,0.4,-1.0,14.17,-1,1.002,46
8740,1800,-1.00,0.4,-1.0,14.12,-1,1.002,45
8760,1800,-1.00,0.4,-1.0,14.16,-1,1.002,43
8780,1800,-1.00,0.5,-1.0,14.13,-1,1.002,33
8800,1800,-1.00,0.5,-1.0,14.17,-1,1.002,34
8820,1800,-1.00,0.5,-1.0,14.20,-1,1.002,36
8840,1800,-1.00,0.5,-1.0,14.12,-1,1.002,35
8860,1800,-1.00,0.5,-1.0,14.13,-1,1.002,32
8880,1800,-1.00,0.5,-1.0,14.11,-1,1.002,44
8900,1800,-1.00,0.6,-1.0,14.20,-1,1.002,36
8920,1800,-1.00,0.6,-1.0,14.17,-1,1.002,34
8940,1800,-1.00,0.6,-1.0,14.18,-1,1.002,43
8960,1800,-1.00,0.6,-1.0,14.10,-1,1.002,33
8980,1800,-1.00,0.6,-1.0,14.15,-1,1.002,42
9000,1800,-1.00,0.7,-1.0,14.13,-1,1.002,45
9020,1800,-1.00,0.7,-1.0,14.20,-1,1.002,47
9040,1800,-1.00,0.7,-1.0,14.15,-1,1.002,47
9060,1800,-1.00,0.7,-1.0,14.13,-1,1.002,43
9080,1800,-1.00,0.7,-1.0,14.13,-1,1.002,37
9100,1800,-1.00,0.7,-1.0,14.18,-1,1.002,39
9120,1800,-1.00,0.8,-1.0,14.11,-1,1.002,35
9140,1800,-1.00,0.8,-1.0,14.14,-1,1.002,32
9160,1800,-1.00,0.8,-1.0,14.18,-1,1.002,46
